SupplyPort 2	Current turn 0.5	Port pressure 8.1
Elapsed	Pressure	Flow rate	Modelled cm3 H2	
0	0.00905922	298.946	0.881524
0.01	0.00821984	298.946	3.87098
0.02	0.0360953	298.946	6.86044
0.03	0.0639707	298.946	9.8499
0.04	0.0918462	298.946	12.8394
0.05	0.119722	298.946	15.8288
0.06	0.147597	298.946	18.8183
0.07	0.175473	298.946	21.8077
0.08	0.203348	298.946	24.7972
0.09	0.231223	298.946	27.7866
0.1	0.259099	298.946	30.7761
0.11	0.286974	298.946	33.7656
0.12	0.31485	298.946	36.755
0.13	0.342725	298.946	39.7445
0.14	0.370601	298.946	42.7339
0.15	0.398476	298.946	45.7234
0.16	0.426352	298.946	48.7128
0.17	0.454227	298.946	51.7023
0.18	0.482102	298.946	54.6918
0.19	0.509978	298.946	57.6812
0.2	0.537853	298.946	60.6707
0.21	0.565729	298.946	63.6601
0.22	0.593604	298.946	66.6496
0.23	0.62148	298.946	69.639
0.24	0.649355	298.946	72.6285
0.25	0.677231	298.946	75.618
0.26	0.705106	298.946	78.6074
0.27	0.732981	298.946	81.5969
0.28	0.760857	298.946	84.5863
0.29	0.788732	298.946	87.5758
0.3	0.816608	298.946	90.5653
0.31	0.844483	298.946	93.5547
0.32	0.872359	298.946	96.5442
0.33	0.900234	298.946	99.5336
0.34	0.92811	298.946	102.523
0.35	0.955985	298.946	105.513
0.36	0.98386	298.946	108.502
0.37	1.01174	298.946	111.491
0.38	1.03961	298.946	114.481
0.39	1.06749	298.946	117.47
0.4	1.09536	298.946	120.46
0.41	1.12324	298.946	123.449
0.42	1.15111	298.946	126.439
0.43	1.17899	298.946	129.428
0.44	1.20686	298.946	132.418
0.45	1.23474	298.946	135.407
0.46	1.26261	298.946	138.397
0.47	1.29049	298.946	141.386
0.48	1.31837	298.946	144.375
0.49	1.34624	298.946	147.365
0.5	1.37412	298.946	150.354
0.51	1.40199	298.946	153.344
0.52	1.42987	298.946	156.333
0.53	1.45774	298.946	159.323
0.54	1.48562	298.946	162.312
0.55	1.51349	298.946	165.302
0.56	1.54137	298.946	168.291
0.57	1.56924	298.946	171.281
0.58	1.59712	298.946	174.27
0.59	1.625	298.946	177.26
0.6	1.65287	298.946	180.249
0.61	1.68075	298.946	183.238
0.62	1.70862	298.946	186.228
0.63	1.7365	298.946	189.217
0.64	1.76437	298.946	192.207
0.65	1.79225	298.946	195.196
0.66	1.82012	298.946	198.186
0.67	1.848	298.946	201.175
0.68	1.87587	298.946	204.165
0.69	1.90375	298.946	207.154
0.7	1.93163	298.946	210.144
0.71	1.9595	298.946	213.133
0.72	1.98738	298.946	216.122
0.73	2.01525	298.946	219.112
0.74	2.04313	298.946	222.101
0.75	2.071	298.946	225.091
0.76	2.09888	298.946	228.08
0.77	2.12675	298.946	231.07
0.78	2.15463	298.946	234.059
0.79	2.1825	298.946	237.049
0.8	2.21038	298.946	240.038
0.81	2.23826	298.946	243.028
0.82	2.26613	298.946	246.017
0.83	2.29401	298.946	249.007
0.84	2.32188	298.946	251.996
0.85	2.34976	298.946	254.985
0.86	2.37763	298.946	257.975
0.87	2.40551	298.946	260.964
0.88	2.43338	298.946	263.954
0.89	2.46126	298.946	266.943
0.9	2.48913	298.946	269.933
0.91	2.51701	298.946	272.922
0.92	2.54489	298.946	275.912
0.93	2.57276	298.946	278.901
0.94	2.60064	298.946	281.891
0.95	2.62851	298.946	284.88
0.96	2.65639	298.946	287.869
0.97	2.68426	298.946	290.859
0.98	2.71214	298.946	293.848
0.99	2.74001	298.946	296.838
1	2.76789	298.946	299.827
1.01	2.79576	298.946	302.817
1.02	2.82364	298.946	305.806
1.03	2.85152	298.946	308.796
1.04	2.87939	298.946	311.785
1.05	2.90727	298.946	314.775
1.06	2.93514	298.946	317.764
1.07	2.96302	298.946	320.753
1.08	2.99089	298.946	323.743
1.09	3.01877	298.946	326.732
1.1	3.04664	298.946	329.722
1.11	3.07452	298.946	332.711
1.12	3.10239	298.946	335.701
1.13	3.13027	298.946	338.69
1.14	3.15815	298.946	341.68
1.15	3.18602	298.946	344.669
1.16	3.2139	298.946	347.659
1.17	3.24177	298.946	350.648
1.18	3.26965	298.946	353.638
1.19	3.29752	298.946	356.627
1.2	3.3254	298.946	359.616
1.21	3.35327	298.946	362.606
1.22	3.38115	298.946	365.595
1.23	3.40902	298.946	368.585
1.24	3.4369	298.946	371.574
1.25	3.46478	298.946	374.564
1.26	3.49265	298.946	377.553
1.27	3.52053	298.946	380.543
1.28	3.5484	298.946	383.532
1.29	3.57628	298.946	386.522
1.3	3.60415	298.946	389.511
1.31	3.63203	298.946	392.5
1.32	3.6599	298.946	395.49
1.33	3.68778	298.946	398.479
1.34	3.71565	298.946	401.469
1.35	3.74353	298.946	404.458
1.36	3.77141	298.946	407.448
1.37	3.79928	298.946	410.437
1.38	3.82716	298.946	413.427
1.39	3.85503	298.946	416.416
1.4	3.88291	298.946	419.406
1.41	3.91078	298.946	422.395
1.42	3.93866	298.946	425.385
1.43	3.96653	298.946	428.374
1.44	3.99441	298.946	431.363
1.45	4.02228	298.946	434.353
1.46	4.05016	299.203	437.345
1.47	4.07806	299.197	440.337
1.48	4.10596	299.181	443.329
1.49	4.13386	299.154	446.32
1.5	4.16175	299.116	449.311
1.51	4.18964	299.068	452.302
1.52	4.21753	299.008	455.292
1.53	4.24541	298.937	458.282
1.54	4.27328	298.855	461.27
1.55	4.30115	298.762	464.258
1.56	4.32901	298.657	467.244
1.57	4.35686	298.541	470.23
1.58	4.3847	298.414	473.214
1.59	4.41252	298.275	476.197
1.6	4.44033	298.125	479.178
1.61	4.46813	297.963	482.157
1.62	4.49592	297.789	485.135
1.63	4.52368	297.604	488.111
1.64	4.55144	297.406	491.085
1.65	4.57917	297.197	494.057
1.66	4.60688	296.976	497.027
1.67	4.63457	296.742	499.995
1.68	4.66224	296.497	502.96
1.69	4.68989	296.239	505.922
1.7	4.71751	295.97	508.882
1.71	4.74511	295.688	511.839
1.72	4.77268	295.393	514.792
1.73	4.80023	295.086	517.743
1.74	4.82774	294.767	520.691
1.75	4.85523	294.435	523.635
1.76	4.88268	294.091	526.576
1.77	4.9101	293.734	529.514
1.78	4.93749	293.364	532.447
1.79	4.96485	292.982	535.377
1.8	4.99217	292.586	538.303
1.81	5.01945	292.178	541.225
1.82	5.04669	291.757	544.142
1.83	5.0739	291.323	547.055
1.84	5.10106	290.876	549.964
1.85	5.12819	290.416	552.868
1.86	5.15527	289.943	555.768
1.87	5.1823	289.456	558.662
1.88	5.20929	288.957	561.552
1.89	5.23624	288.444	564.436
1.9	5.26313	287.917	567.316
1.91	5.28998	287.378	570.189
1.92	5.31678	286.825	573.058
1.93	5.34352	286.258	575.92
1.94	5.37022	285.679	578.777
1.95	5.39685	285.085	581.628
1.96	5.42344	284.478	584.473
1.97	5.44996	283.858	587.311
1.98	5.47643	283.223	590.143
1.99	5.50284	282.575	592.969
2	5.52919	281.914	595.788
2.01	5.55548	281.239	598.601
2.02	5.5817	280.549	601.406
2.03	5.60786	279.846	604.205
2.04	5.63396	279.13	606.996
2.05	5.65998	278.399	609.78
2.06	5.68594	277.654	612.556
2.07	5.71183	276.896	615.325
2.08	5.73765	276.123	618.087
2.09	5.7634	275.337	620.84
2.1	5.78907	274.536	623.585
2.11	5.81467	273.722	626.323
2.12	5.8402	272.893	629.052
2.13	5.86564	272.051	631.772
2.14	5.89101	271.194	634.484
2.15	5.9163	270.323	637.187
2.16	5.94151	269.438	639.882
2.17	5.96663	268.539	642.567
2.18	5.99167	267.626	645.243
2.19	6.01662	266.698	647.91
2.2	6.04149	265.757	650.568
2.21	6.06627	264.801	653.216
2.22	6.09097	263.831	655.854
2.23	6.11557	262.847	658.483
2.24	6.14008	261.848	661.101
2.25	6.16449	260.836	663.709
2.26	6.18881	259.809	666.308
2.27	6.21304	258.768	668.895
2.28	6.23717	257.712	671.472
2.29	6.2612	256.643	674.039
2.3	6.28513	255.559	676.594
2.31	6.30896	254.461	679.139
2.32	6.33269	253.349	681.672
2.33	6.35631	252.223	684.195
2.34	6.37983	251.082	686.705
2.35	6.40324	249.927	689.205
2.36	6.42655	248.758	691.692
2.37	6.44974	247.575	694.168
2.38	6.47283	246.378	696.632
2.39	6.4958	245.167	699.084
2.4	6.51866	243.941	701.523
2.41	6.54141	242.702	703.95
2.42	6.56404	241.448	706.364
2.43	6.58655	240.18	708.766
2.44	6.60895	238.898	711.155
2.45	6.63123	237.603	713.531
2.46	6.65338	236.293	715.894
2.47	6.67542	234.969	718.244
2.48	6.69732	233.632	720.58
2.49	6.71911	232.28	722.903
2.5	6.74077	230.915	725.212
2.51	6.7623	229.536	727.508
2.52	6.7837	228.143	729.789
2.53	6.80498	226.736	732.056
2.54	6.82612	225.315	734.309
2.55	6.84713	223.881	736.548
2.56	6.86801	222.434	738.773
2.57	6.88875	220.972	740.982
2.58	6.90935	219.497	743.177
2.59	6.92982	218.009	745.357
2.6	6.95015	216.507	747.522
2.61	6.97034	214.992	749.672
2.62	6.99038	213.463	751.807
2.63	7.01029	211.922	753.926
2.64	7.03005	210.366	756.03
2.65	7.04966	208.798	758.118
2.66	7.06913	207.217	760.19
2.67	7.08846	205.622	762.246
2.68	7.10763	204.015	764.286
2.69	7.12665	202.394	766.31
2.7	7.14552	200.761	768.318
2.71	7.16424	199.115	770.309
2.72	7.18281	197.456	772.284
2.73	7.20122	195.785	774.242
2.74	7.21948	194.1	776.183
2.75	7.23758	192.404	778.107
2.76	7.25552	190.694	780.013
2.77	7.2733	188.973	781.903
2.78	7.29092	187.239	783.776
2.79	7.30838	185.493	785.631
2.8	7.32568	183.735	787.468
2.81	7.34281	181.964	789.288
2.82	7.35978	180.182	791.089
2.83	7.37658	178.388	792.873
2.84	7.39321	176.581	794.639
2.85	7.40968	174.764	796.387
2.86	7.42597	172.934	798.116
2.87	7.4421	171.093	799.827
2.88	7.45805	169.24	801.519
2.89	7.47383	167.376	803.193
2.9	7.48944	165.501	804.848
2.91	7.50487	163.615	806.484
2.92	7.52013	161.717	808.101
2.93	7.53521	159.809	809.7
2.94	7.55011	157.889	811.278
2.95	7.56483	155.959	812.838
2.96	7.57938	154.018	814.378
2.97	7.59374	152.066	815.899
2.98	7.60792	150.104	817.4
2.99	7.62191	148.132	818.881
3	7.63573	146.149	820.343
3.01	7.64935	144.156	821.784
3.02	7.6628	142.153	823.206
3.03	7.67605	140.14	824.607
3.04	7.68912	138.117	825.988
3.05	7.702	136.084	827.349
3.06	7.71469	134.042	828.69
3.07	7.72719	131.99	830.01
3.08	7.73949	129.929	831.309
3.09	7.75161	127.858	832.587
3.1	7.76353	125.778	833.845
3.11	7.77526	0	833.845
