LeakagePort 1	Current turn 0.5	Pressure storage 13.5116	Pressure reaction 1.47344	Used volumes E, B
Elapsed	Storage	Reaction	Flow rate	Modelled cm3 H2	
0	13.5116	1.47344	0.00352038	0.00152826
0.01	13.5116	1.47344	0.00352038	0.00152826
0.02	13.5037	1.49028	0.00351832	0.00154572
0.03	13.4958	1.50711	0.00351627	0.00156317
0.04	13.4879	1.52392	0.00351422	0.00158061
0.05	13.4801	1.54073	0.00351217	0.00159804
0.06	13.4722	1.55752	0.00351012	0.00161547
0.07	13.4643	1.57431	0.00350807	0.00163288
0.08	13.4565	1.59109	0.00350602	0.00165028
0.09	13.4486	1.60786	0.00350397	0.00166767
0.1	13.4408	1.62461	0.00350193	0.00168505
0.11	13.4329	1.64136	0.00349989	0.00170242
0.12	13.4251	1.6581	0.00349784	0.00171978
0.13	13.4173	1.67483	0.0034958	0.00173713
0.14	13.4094	1.69155	0.00349376	0.00175447
0.15	13.4016	1.70825	0.00349172	0.0017718
0.16	13.3938	1.72495	0.00348969	0.00178912
0.17	13.386	1.74164	0.00348765	0.00180643
0.18	13.3782	1.75832	0.00348561	0.00182373
0.19	13.3703	1.77499	0.00348358	0.00184102
0.2	13.3625	1.79165	0.00348155	0.0018583
0.21	13.3547	1.8083	0.00347952	0.00187557
0.22	13.347	1.82494	0.00347748	0.00189283
0.23	13.3392	1.84157	0.00347546	0.00191008
0.24	13.3314	1.85819	0.00347343	0.00192732
0.25	13.3236	1.8748	0.0034714	0.00194455
0.26	13.3158	1.89141	0.00346937	0.00196177
0.27	13.3081	1.908	0.00346735	0.00197898
0.28	13.3003	1.92458	0.00346533	0.00199618
0.29	13.2925	1.94115	0.0034633	0.00201337
0.3	13.2848	1.95772	0.00346128	0.00203054
0.31	13.277	1.97427	0.00345926	0.00204771
0.32	13.2693	1.99081	0.00345724	0.00206487
0.33	13.2615	2.00735	0.00345523	0.00208202
0.34	13.2538	2.02387	0.00345321	0.00209916
0.35	13.2461	2.04039	0.0034512	0.00211629
0.36	13.2383	2.05689	0.00344918	0.00213341
0.37	13.2306	2.07339	0.00344717	0.00215052
0.38	13.2229	2.08987	0.00344516	0.00216762
0.39	13.2152	2.10635	0.00344315	0.00218471
0.4	13.2074	2.12281	0.00344114	0.00220178
0.41	13.1997	2.13927	0.00343913	0.00221885
0.42	13.192	2.15572	0.00343712	0.00223591
0.43	13.1843	2.17216	0.00343512	0.00225296
0.44	13.1766	2.18858	0.00343311	0.00227
0.45	13.169	2.205	0.00343111	0.00228703
0.46	13.1613	2.22141	0.00342911	0.00230405
0.47	13.1536	2.23781	0.00342711	0.00232106
0.48	13.1459	2.2542	0.00342511	0.00233806
0.49	13.1382	2.27058	0.00342311	0.00235505
0.5	13.1306	2.28695	0.00342111	0.00237203
0.51	13.1229	2.30331	0.00341911	0.002389
0.52	13.1153	2.31967	0.00341712	0.00240596
0.53	13.1076	2.33601	0.00341512	0.00242291
0.54	13.1	2.35234	0.00341313	0.00243985
0.55	13.0923	2.36866	0.00341114	0.00245678
0.56	13.0847	2.38498	0.00340915	0.0024737
0.57	13.077	2.40128	0.00340716	0.00249061
0.58	13.0694	2.41757	0.00340517	0.00250751
0.59	13.0618	2.43386	0.00340318	0.0025244
0.6	13.0542	2.45014	0.0034012	0.00254128
0.61	13.0465	2.4664	0.00339921	0.00255815
0.62	13.0389	2.48266	0.00339723	0.00257501
0.63	13.0313	2.4989	0.00339525	0.00259186
0.64	13.0237	2.51514	0.00339326	0.00260871
0.65	13.0161	2.53137	0.00339128	0.00262554
0.66	13.0085	2.54759	0.00338931	0.00264236
0.67	13.0009	2.5638	0.00338733	0.00265917
0.68	12.9933	2.58	0.00338535	0.00267597
0.69	12.9857	2.59619	0.00338338	0.00269277
0.7	12.9782	2.61237	0.0033814	0.00270955
0.71	12.9706	2.62854	0.00337943	0.00272632
0.72	12.963	2.6447	0.00337746	0.00274309
0.73	12.9555	2.66085	0.00337548	0.00275984
0.74	12.9479	2.677	0.00337351	0.00277658
0.75	12.9403	2.69313	0.00337155	0.00279332
0.76	12.9328	2.70925	0.00336958	0.00281004
0.77	12.9252	2.72537	0.00336761	0.00282675
0.78	12.9177	2.74147	0.00336565	0.00284346
0.79	12.9102	2.75757	0.00336368	0.00286015
0.8	12.9026	2.77366	0.00336172	0.00287684
0.81	12.8951	2.78973	0.00335976	0.00289351
0.82	12.8876	2.8058	0.0033578	0.00291018
0.83	12.8801	2.82186	0.00335584	0.00292683
0.84	12.8725	2.83791	0.00335388	0.00294348
0.85	12.865	2.85395	0.00335192	0.00296012
0.86	12.8575	2.86998	0.00334997	0.00297674
0.87	12.85	2.886	0.00334801	0.00299336
0.88	12.8425	2.90201	0.00334606	0.00300997
0.89	12.835	2.91801	0.0033441	0.00302656
0.9	12.8275	2.93401	0.00334215	0.00304315
0.91	12.8201	2.94999	0.0033402	0.00305973
0.92	12.8126	2.96596	0.00333825	0.0030763
0.93	12.8051	2.98193	0.00333631	0.00309286
0.94	12.7976	2.99788	0.00333436	0.00310941
0.95	12.7902	3.01383	0.00333241	0.00312595
0.96	12.7827	3.02977	0.00333047	0.00314248
0.97	12.7752	3.04569	0.00332852	0.003159
0.98	12.7678	3.06161	0.00332658	0.00317551
0.99	12.7603	3.07752	0.00332464	0.00319201
1	12.7529	3.09342	0.0033227	0.0032085
1.01	12.7454	3.10931	0.00332076	0.00322498
1.02	12.738	3.12519	0.00331882	0.00324145
1.03	12.7306	3.14107	0.00331689	0.00325792
1.04	12.7231	3.15693	0.00331495	0.00327437
1.05	12.7157	3.17278	0.00331302	0.00329081
1.06	12.7083	3.18863	0.00331108	0.00330724
1.07	12.7009	3.20446	0.00330915	0.00332367
1.08	12.6935	3.22029	0.00330722	0.00334008
1.09	12.6861	3.2361	0.00330529	0.00335649
1.1	12.6786	3.25191	0.00330336	0.00337288
1.11	12.6713	3.26771	0.00330143	0.00338927
1.12	12.6639	3.2835	0.00329951	0.00340565
1.13	12.6565	3.29928	0.00329758	0.00342201
1.14	12.6491	3.31505	0.00329566	0.00343837
1.15	12.6417	3.33081	0.00329373	0.00345472
1.16	12.6343	3.34656	0.00329181	0.00347105
1.17	12.6269	3.3623	0.00328989	0.00348738
1.18	12.6196	3.37804	0.00328797	0.0035037
1.19	12.6122	3.39376	0.00328605	0.00352001
1.2	12.6049	3.40948	0.00328414	0.00353631
1.21	12.5975	3.42518	0.00328222	0.0035526
1.22	12.5901	3.44088	0.0032803	0.00356888
1.23	12.5828	3.45657	0.00327839	0.00358515
1.24	12.5755	3.47225	0.00327648	0.00360142
1.25	12.5681	3.48792	0.00327456	0.00361767
1.26	12.5608	3.50358	0.00327265	0.00363391
1.27	12.5535	3.51923	0.00327074	0.00365014
1.28	12.5461	3.53487	0.00326883	0.00366637
1.29	12.5388	3.5505	0.00326693	0.00368258
1.3	12.5315	3.56613	0.00326502	0.00369879
1.31	12.5242	3.58174	0.00326311	0.00371498
1.32	12.5169	3.59735	0.00326121	0.00373117
1.33	12.5096	3.61294	0.00325931	0.00374735
1.34	12.5023	3.62853	0.00325741	0.00376351
1.35	12.495	3.64411	0.0032555	0.00377967
1.36	12.4877	3.65968	0.0032536	0.00379582
1.37	12.4804	3.67524	0.00325171	0.00381196
1.38	12.4731	3.69079	0.00324981	0.00382809
1.39	12.4658	3.70633	0.00324791	0.00384421
1.4	12.4586	3.72186	0.00324602	0.00386032
1.41	12.4513	3.73739	0.00324412	0.00387642
1.42	12.444	3.7529	0.00324223	0.00389251
1.43	12.4368	3.76841	0.00324034	0.00390859
1.44	12.4295	3.7839	0.00323845	0.00392467
1.45	12.4222	3.79939	0.00323656	0.00394073
1.46	12.415	3.81487	0.00323467	0.00395679
1.47	12.4077	3.83034	0.00323278	0.00397283
1.48	12.4005	3.8458	0.00323089	0.00398887
1.49	12.3933	3.86125	0.00322901	0.00400489
1.5	12.386	3.87669	0.00322712	0.00402091
1.51	12.3788	3.89213	0.00322524	0.00403692
1.52	12.3716	3.90755	0.00322336	0.00405291
1.53	12.3644	3.92297	0.00322148	0.0040689
1.54	12.3572	3.93837	0.0032196	0.00408488
1.55	12.3499	3.95377	0.00321772	0.00410085
1.56	12.3427	3.96916	0.00321584	0.00411681
1.57	12.3355	3.98454	0.00321396	0.00413277
1.58	12.3283	3.99991	0.00321209	0.00414871
1.59	12.3211	4.01527	0.00321021	0.00416464
1.6	12.3139	4.03062	0.00320834	0.00418056
1.61	12.3068	4.04597	0.00320647	0.00419648
1.62	12.2996	4.0613	0.0032046	0.00421238
1.63	12.2924	4.07663	0.00320273	0.00422828
1.64	12.2852	4.09194	0.00320086	0.00424417
1.65	12.2781	4.10725	0.00319899	0.00426004
1.66	12.2709	4.12255	0.00319712	0.00427591
1.67	12.2637	4.13784	0.00319526	0.00429177
1.68	12.2566	4.15312	0.00319339	0.00430762
1.69	12.2494	4.16839	0.00319153	0.00432346
1.7	12.2423	4.18366	0.00318967	0.00433929
1.71	12.2351	4.19891	0.00318781	0.00435511
1.72	12.228	4.21416	0.00318595	0.00437093
1.73	12.2209	4.22939	0.00318409	0.00438673
1.74	12.2137	4.24462	0.00318223	0.00440252
1.75	12.2066	4.25984	0.00318037	0.00441831
1.76	12.1995	4.27505	0.00317852	0.00443408
1.77	12.1924	4.29025	0.00317666	0.00444985
1.78	12.1852	4.30544	0.00317481	0.00446561
1.79	12.1781	4.32063	0.00317295	0.00448136
1.8	12.171	4.3358	0.0031711	0.00449709
1.81	12.1639	4.35097	0.00316925	0.00451282
1.82	12.1568	4.36612	0.0031674	0.00452854
1.83	12.1497	4.38127	0.00316555	0.00454426
1.84	12.1426	4.39641	0.00316371	0.00455996
1.85	12.1356	4.41154	0.00316186	0.00457565
1.86	12.1285	4.42666	0.00316002	0.00459133
1.87	12.1214	4.44177	0.00315817	0.00460701
1.88	12.1143	4.45688	0.00315633	0.00462267
1.89	12.1072	4.47197	0.00315449	0.00463833
1.9	12.1002	4.48706	0.00315265	0.00465398
1.91	12.0931	4.50213	0.00315081	0.00466962
1.92	12.0861	4.5172	0.00314897	0.00468525
1.93	12.079	4.53226	0.00314713	0.00470087
1.94	12.072	4.54731	0.00314529	0.00471648
1.95	12.0649	4.56236	0.00314346	0.00473208
1.96	12.0579	4.57739	0.00314162	0.00474767
1.97	12.0508	4.59241	0.00313979	0.00476325
1.98	12.0438	4.60743	0.00313796	0.00477883
1.99	12.0368	4.62244	0.00313613	0.00479439
2	12.0298	4.63743	0.0031343	0.00480995
2.01	12.0227	4.65242	0.00313247	0.0048255
2.02	12.0157	4.6674	0.00313064	0.00484103
2.03	12.0087	4.68238	0.00312881	0.00485656
2.04	12.0017	4.69734	0.00312699	0.00487208
2.05	11.9947	4.71229	0.00312516	0.00488759
2.06	11.9877	4.72724	0.00312334	0.0049031
2.07	11.9807	4.74218	0.00312152	0.00491859
2.08	11.9737	4.75711	0.00311969	0.00493407
2.09	11.9667	4.77203	0.00311787	0.00494955
2.1	11.9597	4.78694	0.00311605	0.00496501
2.11	11.9528	4.80184	0.00311423	0.00498047
2.12	11.9458	4.81673	0.00311242	0.00499592
2.13	11.9388	4.83162	0.0031106	0.00501136
2.14	11.9318	4.84649	0.00310879	0.00502679
2.15	11.9249	4.86136	0.00310697	0.00504221
2.16	11.9179	4.87622	0.00310516	0.00505762
2.17	11.911	4.89107	0.00310335	0.00507302
2.18	11.904	4.90591	0.00310154	0.00508841
2.19	11.8971	4.92074	0.00309973	0.0051038
2.2	11.8901	4.93557	0.00309792	0.00511917
2.21	11.8832	4.95038	0.00309611	0.00513454
2.22	11.8763	4.96519	0.0030943	0.0051499
2.23	11.8693	4.97999	0.0030925	0.00516525
2.24	11.8624	4.99478	0.00309069	0.00518059
2.25	11.8555	5.00956	0.00308889	0.00519592
2.26	11.8486	5.02433	0.00308709	0.00521124
2.27	11.8416	5.0391	0.00308528	0.00522655
2.28	11.8347	5.05385	0.00308348	0.00524186
2.29	11.8278	5.0686	0.00308168	0.00525715
2.3	11.8209	5.08333	0.00307989	0.00527244
2.31	11.814	5.09806	0.00307809	0.00528771
2.32	11.8071	5.11278	0.00307629	0.00530298
2.33	11.8002	5.1275	0.0030745	0.00531824
2.34	11.7934	5.1422	0.0030727	0.00533349
2.35	11.7865	5.1569	0.00307091	0.00534873
2.36	11.7796	5.17158	0.00306912	0.00536397
2.37	11.7727	5.18626	0.00306733	0.00537919
2.38	11.7659	5.20093	0.00306554	0.00539441
2.39	11.759	5.21559	0.00306375	0.00540961
2.4	11.7521	5.23024	0.00306196	0.00542481
2.41	11.7453	5.24488	0.00306017	0.00544
2.42	11.7384	5.25952	0.00305839	0.00545518
2.43	11.7316	5.27415	0.0030566	0.00547035
2.44	11.7247	5.28876	0.00305482	0.00548551
2.45	11.7179	5.30337	0.00305304	0.00550066
2.46	11.711	5.31797	0.00305125	0.00551581
2.47	11.7042	5.33257	0.00304947	0.00553094
2.48	11.6974	5.34715	0.00304769	0.00554607
2.49	11.6905	5.36173	0.00304592	0.00556119
2.5	11.6837	5.37629	0.00304414	0.00557629
2.51	11.6769	5.39085	0.00304236	0.00559139
2.52	11.6701	5.4054	0.00304059	0.00560648
2.53	11.6633	5.41994	0.00303881	0.00562157
2.54	11.6565	5.43448	0.00303704	0.00563664
2.55	11.6497	5.449	0.00303527	0.00565171
2.56	11.6429	5.46352	0.0030335	0.00566676
2.57	11.6361	5.47802	0.00303172	0.00568181
2.58	11.6293	5.49252	0.00302996	0.00569685
2.59	11.6225	5.50701	0.00302819	0.00571188
2.6	11.6157	5.52149	0.00302642	0.0057269
2.61	11.6089	5.53597	0.00302465	0.00574191
2.62	11.6022	5.55043	0.00302289	0.00575691
2.63	11.5954	5.56489	0.00302113	0.00577191
2.64	11.5886	5.57934	0.00301936	0.00578689
2.65	11.5819	5.59378	0.0030176	0.00580187
2.66	11.5751	5.60821	0.00301584	0.00581684
2.67	11.5684	5.62263	0.00301408	0.0058318
2.68	11.5616	5.63705	0.00301232	0.00584675
2.69	11.5549	5.65145	0.00301056	0.00586169
2.7	11.5481	5.66585	0.00300881	0.00587662
2.71	11.5414	5.68024	0.00300705	0.00589155
2.72	11.5346	5.69462	0.0030053	0.00590646
2.73	11.5279	5.70899	0.00300354	0.00592137
2.74	11.5212	5.72336	0.00300179	0.00593627
2.75	11.5145	5.73771	0.00300004	0.00595116
2.76	11.5077	5.75206	0.00299829	0.00596604
2.77	11.501	5.7664	0.00299654	0.00598091
2.78	11.4943	5.78073	0.00299479	0.00599578
2.79	11.4876	5.79505	0.00299304	0.00601063
2.8	11.4809	5.80937	0.00299129	0.00602548
2.81	11.4742	5.82367	0.00298955	0.00604032
2.82	11.4675	5.83797	0.0029878	0.00605515
2.83	11.4608	5.85226	0.00298606	0.00606997
2.84	11.4541	5.86654	0.00298432	0.00608478
2.85	11.4474	5.88081	0.00298258	0.00609958
2.86	11.4408	5.89508	0.00298084	0.00611438
2.87	11.4341	5.90933	0.0029791	0.00612916
2.88	11.4274	5.92358	0.00297736	0.00614394
2.89	11.4207	5.93782	0.00297562	0.00615871
2.9	11.4141	5.95205	0.00297388	0.00617347
2.91	11.4074	5.96627	0.00297215	0.00618822
2.92	11.4008	5.98048	0.00297041	0.00620296
2.93	11.3941	5.99469	0.00296868	0.0062177
2.94	11.3875	6.00889	0.0016483	0.00623242
2.95	11.3838	6.01677	0.00164776	0.0062406
2.96	11.3801	6.02465	0.00164721	0.00624877
2.97	11.3764	6.03253	0.00164665	0.00625694
2.98	11.3727	6.0404	0.00164609	0.00626511
2.99	11.369	6.04828	0.00164553	0.00627327
3	11.3653	6.05614	0.00164496	0.00628144
3.01	11.3616	6.06401	0.00164438	0.0062896
3.02	11.358	6.07188	0.0016438	0.00629775
3.03	11.3543	6.07974	0.00164322	0.00630591
3.04	11.3506	6.0876	0.00164263	0.00631406
3.05	11.3469	6.09545	0.00164203	0.00632221
3.06	11.3432	6.1033	0.00164143	0.00633035
3.07	11.3396	6.11115	0.00164083	0.00633849
3.08	11.3359	6.119	0.00164021	0.00634663
3.09	11.3322	6.12685	0.0016396	0.00635477
3.1	11.3285	6.13469	0.00163898	0.0063629
3.11	11.3249	6.14252	0.00163835	0.00637103
3.12	11.3212	6.15036	0.00163772	0.00637916
3.13	11.3175	6.15819	0.00163708	0.00638728
3.14	11.3139	6.16602	0.00163644	0.0063954
3.15	11.3102	6.17385	0.00163579	0.00640352
3.16	11.3065	6.18167	0.00163514	0.00641163
3.17	11.3029	6.18949	0.00163448	0.00641974
3.18	11.2992	6.19731	0.00163382	0.00642785
3.19	11.2956	6.20512	0.00163315	0.00643595
3.2	11.2919	6.21293	0.00163248	0.00644406
3.21	11.2882	6.22074	0.0016318	0.00645215
3.22	11.2846	6.22854	0.00163111	0.00646025
3.23	11.2809	6.23634	0.00163042	0.00646834
3.24	11.2773	6.24414	0.00162973	0.00647643
3.25	11.2736	6.25193	0.00162903	0.00648451
3.26	11.27	6.25973	0.00162833	0.00649259
3.27	11.2663	6.26751	0.00162762	0.00650067
3.28	11.2627	6.2753	0.0016269	0.00650874
3.29	11.259	6.28308	0.00162618	0.00651681
3.3	11.2554	6.29085	0.00162546	0.00652488
3.31	11.2518	6.29863	0.00162473	0.00653294
3.32	11.2481	6.3064	0.00162399	0.006541
3.33	11.2445	6.31416	0.00162325	0.00654905
3.34	11.2408	6.32193	0.00162251	0.00655711
3.35	11.2372	6.32969	0.00162175	0.00656515
3.36	11.2336	6.33744	0.001621	0.0065732
3.37	11.2299	6.3452	0.00162024	0.00658124
3.38	11.2263	6.35294	0.00161947	0.00658928
3.39	11.2227	6.36069	0.0016187	0.00659731
3.4	11.2191	6.36843	0.00161792	0.00660534
3.41	11.2154	6.37617	0.00161714	0.00661336
3.42	11.2118	6.3839	0.00161635	0.00662139
3.43	11.2082	6.39163	0.00161556	0.0066294
3.44	11.2046	6.39936	0.00161476	0.00663742
3.45	11.201	6.40708	0.00161396	0.00664543
3.46	11.1974	6.4148	0.00161315	0.00665343
3.47	11.1937	6.42251	0.00161234	0.00666143
3.48	11.1901	6.43022	0.00161152	0.00666943
3.49	11.1865	6.43793	0.0016107	0.00667743
3.5	11.1829	6.44563	0.00160987	0.00668542
3.51	11.1793	6.45333	0.00160904	0.0066934
3.52	11.1757	6.46103	0.0016082	0.00670138
3.53	11.1721	6.46872	0.00160736	0.00670936
3.54	11.1685	6.47641	0.00160651	0.00671733
3.55	11.1649	6.48409	0.00160566	0.0067253
3.56	11.1613	6.49177	0.0016048	0.00673327
3.57	11.1577	6.49944	0.00160393	0.00674123
3.58	11.1541	6.50711	0.00160306	0.00674918
3.59	11.1505	6.51478	0.00160219	0.00675713
3.6	11.1469	6.52244	0.00160131	0.00676508
3.61	11.1434	6.5301	0.00160043	0.00677302
3.62	11.1398	6.53775	0.00159954	0.00678096
3.63	11.1362	6.5454	0.00159864	0.0067889
3.64	11.1326	6.55305	0.00159774	0.00679683
3.65	11.129	6.56069	0.00159684	0.00680475
3.66	11.1254	6.56833	0.00159593	0.00681267
3.67	11.1219	6.57596	0.00159501	0.00682059
3.68	11.1183	6.58359	0.00159409	0.0068285
3.69	11.1147	6.59121	0.00159317	0.00683641
3.7	11.1112	6.59883	0.00159224	0.00684431
3.71	11.1076	6.60645	0.0015913	0.00685221
3.72	11.104	6.61406	0.00159036	0.0068601
3.73	11.1005	6.62166	0.00158942	0.00686799
3.74	11.0969	6.62926	0.00158846	0.00687587
3.75	11.0934	6.63686	0.00158751	0.00688375
3.76	11.0898	6.64445	0.00158655	0.00689163
3.77	11.0862	6.65204	0.00158558	0.0068995
3.78	11.0827	6.65962	0.00158461	0.00690736
3.79	11.0791	6.6672	0.00158363	0.00691522
3.8	11.0756	6.67477	0.00158265	0.00692308
3.81	11.0721	6.68234	0.00158167	0.00693093
3.82	11.0685	6.68991	0.00158068	0.00693878
3.83	11.065	6.69747	0.00157968	0.00694662
3.84	11.0614	6.70502	0.00157868	0.00695445
3.85	11.0579	6.71257	0.00157767	0.00696228
3.86	11.0544	6.72012	0.00157666	0.00697011
3.87	11.0508	6.72766	0.00157564	0.00697793
3.88	11.0473	6.73519	0.00157462	0.00698574
3.89	11.0438	6.74272	0.0015736	0.00699356
3.9	11.0402	6.75025	0.00157256	0.00700136
3.91	11.0367	6.75777	0.00157153	0.00700916
3.92	11.0332	6.76528	0.00157049	0.00701696
3.93	11.0297	6.77279	0.00156944	0.00702475
3.94	11.0262	6.7803	0.00156839	0.00703253
3.95	11.0227	6.7878	0.00156733	0.00704031
3.96	11.0192	6.7953	0.00156627	0.00704809
3.97	11.0156	6.80279	0.0015652	0.00705585
3.98	11.0121	6.81027	0.00156413	0.00706362
3.99	11.0086	6.81775	0.00156305	0.00707138
4	11.0051	6.82523	0.00156197	0.00707913
4.01	11.0016	6.8327	0.00156088	0.00708688
4.02	10.9981	6.84016	0.00155979	0.00709462
4.03	10.9946	6.84762	0.00155869	0.00710236
4.04	10.9912	6.85508	0.00155759	0.00711009
4.05	10.9877	6.86253	0.00155648	0.00711782
4.06	10.9842	6.86997	0.00155537	0.00712554
4.07	10.9807	6.87741	0.00155426	0.00713325
4.08	10.9772	6.88484	0.00155313	0.00714096
4.09	10.9737	6.89227	0.00155201	0.00714866
4.1	10.9703	6.89969	0.00155087	0.00715636
4.11	10.9668	6.90711	0.00154974	0.00716406
4.12	10.9633	6.91452	0.00154859	0.00717174
4.13	10.9598	6.92193	0.00154745	0.00717942
4.14	10.9564	6.92933	0.0015463	0.0071871
4.15	10.9529	6.93672	0.00154514	0.00719477
4.16	10.9495	6.94411	0.00154398	0.00720244
4.17	10.946	6.95149	0.00154281	0.00721009
4.18	10.9425	6.95887	0.00154164	0.00721775
4.19	10.9391	6.96625	0.00154046	0.00722539
4.2	10.9356	6.97361	0.00153928	0.00723303
4.21	10.9322	6.98097	0.00153809	0.00724067
4.22	10.9287	6.98833	0.0015369	0.0072483
4.23	10.9253	6.99568	0.0015357	0.00725592
4.24	10.9219	7.00302	0.0015345	0.00726354
4.25	10.9184	7.01036	0.0015333	0.00727115
4.26	10.915	7.0177	0.00153208	0.00727876
4.27	10.9116	7.02502	0.00153087	0.00728636
4.28	10.9081	7.03234	0.00152965	0.00729395
4.29	10.9047	7.03966	0.00152842	0.00730154
4.3	10.9013	7.04697	0.00152719	0.00730912
4.31	10.8979	7.05427	0.00152595	0.0073167
4.32	10.8944	7.06157	0.00152471	0.00732426
4.33	10.891	7.06886	0.00152347	0.00733183
4.34	10.8876	7.07615	0.00152221	0.00733938
4.35	10.8842	7.08343	0.00152096	0.00734694
4.36	10.8808	7.0907	0.0015197	0.00735448
4.37	10.8774	7.09797	0.00151843	0.00736202
4.38	10.874	7.10523	0.00151716	0.00736955
4.39	10.8706	7.11249	0.00151589	0.00737708
4.4	10.8672	7.11974	0.00151461	0.00738459
4.41	10.8638	7.12698	0.00151332	0.00739211
4.42	10.8604	7.13422	0.00151203	0.00739961
4.43	10.857	7.14145	0.00151074	0.00740711
4.44	10.8537	7.14867	0.00150944	0.00741461
4.45	10.8503	7.15589	0.00150813	0.0074221
4.46	10.8469	7.1631	0.00150682	0.00742958
4.47	10.8435	7.17031	0.00150551	0.00743705
4.48	10.8401	7.17751	0.00150419	0.00744452
4.49	10.8368	7.1847	0.00150286	0.00745198
4.5	10.8334	7.19189	0.00150153	0.00745943
4.51	10.83	7.19907	0.0015002	0.00746688
4.52	10.8267	7.20625	0.00149886	0.00747432
4.53	10.8233	7.21342	0.00149752	0.00748176
4.54	10.82	7.22058	0.00149617	0.00748919
4.55	10.8166	7.22773	0.00149482	0.00749661
4.56	10.8133	7.23488	0.00149346	0.00750402
4.57	10.8099	7.24202	0.0014921	0.00751143
4.58	10.8066	7.24916	0.00149073	0.00751883
4.59	10.8033	7.25629	0.00148936	0.00752623
4.6	10.7999	7.26341	0.00148798	0.00753361
4.61	10.7966	7.27053	0.0014866	0.007541
4.62	10.7933	7.27764	0.00148521	0.00754837
4.63	10.7899	7.28474	0.00148382	0.00755574
4.64	10.7866	7.29184	0.00148242	0.0075631
4.65	10.7833	7.29893	0.00148102	0.00757045
4.66	10.78	7.30601	0.00147961	0.0075778
